ID,Count
18288,0.7709929034960837
18289,0.6303761848794931
18290,0.5147692282426347
18291,0.43780099894331853
18292,0.40205690199486815
18293,0.4086708654696154
18294,0.462306608257715
18295,0.5688674465595474
18296,0.7224061806262395
18297,0.8860008623289577
18298,0.9979052917599579
18299,1.0230060730498505
18300,0.9881290015272586
18301,0.9483610724126849
18302,0.9388691272735127
18303,0.9616045002111332
18304,0.9959533290861099
18305,1.0189852150323562
18306,1.0243948816339234
18307,1.0221742206442088
18308,1.0196469380366904
18309,1.00589834179624
18310,0.9562288645076817
18311,0.8559191437817589
18312,0.7196327255126795
18313,0.5813995965014757
18314,0.46923233126896047
18315,0.3945219452330646
18316,0.3583047406205468
18317,0.360324535806666
18318,0.4034806377043024
18319,0.4917290219190804
18320,0.6188706412395134
18321,0.7527810292460564
18322,0.8415543738020925
18323,0.8570380754652095
18324,0.8231182130945639
18325,0.7862698961753127
18326,0.7755291348088831
18327,0.792229969051818
18328,0.8192952976986907
18329,0.8379474491859671
18330,0.8430967575059081
18331,0.8429848447809899
18332,0.8436457512840579
18333,0.8360153172758622
18334,0.7992942070649137
18335,0.7204339662849805
18336,0.6106813375595144
18337,0.49800853134830625
18338,0.40617319014060155
18339,0.3454954362289231
18340,0.3177886639859931
18341,0.32399505887766405
18342,0.36816629321535527
18343,0.4557358101142961
18344,0.583056689671835
18345,0.7214837982250296
18346,0.8210583486167081
18347,0.8516755067742128
18348,0.833539614630913
18349,0.8116922376673875
18350,0.816386694542395
18351,0.8505602617969001
18352,0.897187458823802
18353,0.935913806907032
18354,0.9603172494753204
18355,0.9789757726626367
18356,0.9985713255745088
18357,1.0081104077873326
18358,0.9813883762642743
18359,0.8957212810908922
18360,0.7682814751063105
18361,0.6334535796563475
18362,0.5218815414427647
18363,0.44798519591999514
18364,0.4154022045504819
18365,0.4264808779878143
18366,0.48745462592762
18367,0.6061921305990022
18368,0.7781727503093914
18369,0.9649564028479313
18370,1.099028562593375
18371,1.1394485777020513
18372,1.1131702420171254
18373,1.080616584583528
18374,1.0820707746014473
18375,1.120951773334726
18376,1.1741971265606943
18377,1.2148931569564356
18378,1.2349444881637843
18379,1.2457810773450164
18380,1.2560757432588436
18381,1.2521819700481753
18382,1.2025595848797268
18383,1.0871239740447818
18384,0.9228164286125202
18385,0.7524545120856748
18386,0.6126667907284907
18387,0.519463698527011
18388,0.4755412053411509
18389,0.48180620235698945
18390,0.5432794978105122
18391,0.6663703664899837
18392,0.8435958935732326
18393,1.0315547043722753
18394,1.1585859606669815
18395,1.184654739468301
18396,1.1415969411432736
18397,1.0934154946725914
18398,1.0806130374425893
18399,1.1052729302054776
18400,1.1436299596988695
18401,1.1693999055946267
18402,1.1754226143118516
18403,1.1731988003765164
18404,1.1711400906324054
18405,1.1566965069075221
18406,1.101354220380728
18407,0.9878449110190718
18408,0.8326149393941061
18409,0.6746290553221772
18410,0.54626874966851
18411,0.46097587380134336
18412,0.42033564550620084
18413,0.4245295856784687
18414,0.4775570455615609
18415,0.5848135716383035
18416,0.7397115585071176
18417,0.9044072671578709
18418,1.0163688276134946
18419,1.0405479109658864
18420,1.0046468209564892
18421,0.964684679147271
18422,0.956366131445365
18423,0.9817837247457134
18424,1.0201077172966273
18425,1.0479545328764484
18426,1.0587152493476801
18427,1.062505246495734
18428,1.0668236917561902
18429,1.0601288305269645
18430,1.0158595190194866
18431,0.9281760217588029
18432,0.7969627556889748
18433,0.6577913522250948
18434,0.5424959168624164
18435,0.46615981026189124
18436,0.4326951543841606
18437,0.4446827600871049
18438,0.5087657067869449
18439,0.6333185798313453
18440,0.8137886661824988
18441,1.0100953271508806
18442,1.151537421850293
18443,1.1950155482857687
18444,1.1685451346146
18445,1.135418399175303
18446,1.137982719940969
18447,1.1799345640152152
18448,1.2370814242146462
18449,1.2810819372520725
18450,1.3033560413822474
18451,1.3159198133043073
18452,1.3279166907935396
18453,1.3249057487454103
18454,1.2734500176621935
18455,1.152145556899436
18456,0.9787950792409985
18457,0.7987301782241042
18458,0.6508527707334332
18459,0.5522648224877045
18460,0.505951945226576
18461,0.5130002919738872
18462,0.5788790308702323
18463,0.7105499523517701
18464,0.9001667937904513
18465,1.1015026293231724
18466,1.2380022244621158
18467,1.266718144169723
18468,1.2214935042440078
18469,1.1707088327618336
18470,1.1577487275663807
18471,1.1849204954006782
18472,1.226806019739472
18473,1.2552182686712703
18474,1.2624412791874977
18475,1.2607960121885569
18476,1.2593117610552287
18477,1.2444863963090047
18478,1.185602732450607
18479,1.0639898957863838
18480,0.8972730554927847
18481,0.7273983067819992
18482,0.5892987845805324
18483,0.4975359421050842
18484,0.4538942610182399
18485,0.4586419500232079
18486,0.5161709411539717
18487,0.6323876221928547
18488,0.8002415423496535
18489,0.978837618319069
18490,1.1004771277576297
18491,1.1271195998460566
18492,1.0886661935159863
18493,1.045767830549258
18494,1.037141081430303
18495,1.0650951701200768
18496,1.1070640534508938
18497,1.137675709641997
18498,1.1497402878369831
18499,1.1542274956571001
18500,1.1592789756593873
18501,1.152349350998991
18502,1.1045480697951213
18503,1.0020894727533052
18504,0.8544439353660882
18505,0.7004356528361981
18506,0.5738472889091024
18507,0.4899579131573747
18508,0.4520144157870007
18509,0.4618550190517801
18510,0.5255478834811408
18511,0.6509135664365576
18512,0.8325279254168303
18513,1.0290232323605453
18514,1.1687304044799156
18515,1.2088918792769874
18516,1.1788146025556863
18517,1.142754328854128
18518,1.1432485592992128
18519,1.183805481449413
18520,1.2400630634277394
18521,1.2836463032176952
18522,1.306010904227064
18523,1.319201823476683
18524,1.3323622788967218
18525,1.3309597087176412
18526,1.2812522059249452
18527,1.1613456529109902
18528,0.9886874351405274
18529,0.8086750706942752
18530,0.6605993924226488
18531,0.5620039393467614
18532,0.5162651541414531
18533,0.5248887722916818
18534,0.5939058899324537
18535,0.7309339359235948
18536,0.9283539167444858
18537,1.1387198326733525
18538,1.2826501155331176
18539,1.3149787304100662
18540,1.2701683223558633
18541,1.21902867862358
18542,1.2067665742750804
18543,1.2358851948625276
18544,1.279880607839387
18545,1.3092800928088062
18546,1.315987175742236
18547,1.3128469636931417
18548,1.3092701127786548
18549,1.2912463213525522
18550,1.2270936960628567
18551,1.0979808687441774
18552,0.9227931603102668
18553,0.7452206420804328
18554,0.6011737545329838
18555,0.5052082306454283
18556,0.4585895936455087
18557,0.46091737291597606
18558,0.5158159201466984
18559,0.6282404230761737
18560,0.790156450853868
18561,0.9604620773694792
18562,1.0729444775683907
18563,1.0918521975185176
18564,1.0478033102663427
18565,1.00006485650756
18566,0.9855501693632625
18567,1.0058682982664815
18568,1.0392611178510385
18569,1.0618923410191536
18570,1.0673472463698472
18571,1.066099674008563
18572,1.0657933662569818
18573,1.0549869423887714
18574,1.0074989226964215
18575,0.9031262901013958
18576,0.7604383245076283
18577,0.6152752765592696
18578,0.4973115777950726
18579,0.41875684940375635
18580,0.3808882692814111
18581,0.3836165092574492
18582,0.43021806517063704
18583,0.5251197015640604
18584,0.6619159873261053
18585,0.8063918351182127
18586,0.9028965734672276
18587,0.920954478724709
18588,0.8859032493063181
18589,0.8475894313765879
18590,0.8373471069491996
18591,0.8567534648485277
18592,0.887454076898385
18593,0.9091313130774842
18594,0.9162103520999068
18595,0.9175906383588782
18596,0.9198228737352351
18597,0.9130122117488977
18598,0.8743607148200753
18599,0.789410815850065
18600,0.6702729853774907
18601,0.5475266131957348
18602,0.44731580907625806
18603,0.38113862505683316
18604,0.3511719085679099
18605,0.3586439332601667
18606,0.4082402582043138
18607,0.5062145030255457
18608,0.6487609568948661
18609,0.8041847331960208
18610,0.916772030812645
18611,0.9526257355518917
18612,0.933980680365816
18613,0.9111065409755054
18614,0.9179993899440015
18615,0.9581263762335435
18616,1.0124524021334682
18617,1.058043247422227
18618,1.0875790220923875
18619,1.1107054303604214
18620,1.134982547063296
18621,1.1478987024632725
18622,1.1194995759556048
18623,1.02864583766892
18624,0.8882349417290228
18625,0.7372949222164753
18626,0.6115355029641915
18627,0.5284950404073832
18628,0.4933756128436153
18629,0.5099693520200227
18630,0.586838006326202
18631,0.7347466860834208
18632,0.9496210564011315
18633,1.1855845842758075
18634,1.3595269257580287
18635,1.4191584367780379
18636,1.3959127839382706
18637,1.3643694372575228
18638,1.3755699510064836
18639,1.4347739728545819
18640,1.5132472782268633
18641,1.5764564097237543
18642,1.6134996049365036
18643,1.6388648676780169
18644,1.6637940308841541
18645,1.670073996447347
18646,1.6149590387428536
18647,1.455042577127202
18648,1.230997161770844
18649,1.0003926463591042
18650,0.8118326280436371
18651,0.686045180992808
18652,0.6259569543485481
18653,0.6321075281287354
18654,0.7104076519041637
18655,0.8684987953530213
18656,1.0958742892682243
18657,1.3356565605930635
18658,1.4952389134269073
18659,1.523903499394142
18660,1.4637448162136446
18661,1.397424257161297
18662,1.3765986107884531
18663,1.4034738703956116
18664,1.4475101323082908
18665,1.4753805813418521
18666,1.478235451685184
18667,1.4707315194627693
18668,1.4634790970512532
18669,1.4408430163915165
18670,1.3675635613992774
18671,1.222745940703856
18672,1.0273592619866074
18673,0.8298079468573287
18674,0.6698183638662912
18675,0.5634699833445292
18676,0.5121939776764728
18677,0.5156982275865238
18678,0.5783172504068211
18679,0.7060172949028629
18680,0.8902687177180164
18681,1.085144010418896
18682,1.215746760988678
18683,1.2408696172977742
18684,1.1944105000301044
18685,1.1434194150620076
18686,1.1301295075087598
18687,1.1566649440089867
18688,1.1982001714582282
18689,1.2272167508384635
18690,1.2361107723191873
18691,1.2368373794673417
18692,1.238173151247996
18693,1.2267569073598572
18694,1.1720566112805169
18695,1.0550900829276058
18696,0.8926920189441672
18697,0.7261685061653185
18698,0.5903814604724187
18699,0.5002401765801423
18700,0.45800664330881435
18701,0.46445240799897264
18702,0.5245420870143461
18703,0.6448227961939683
18704,0.8186183380986548
18705,1.0043616075622168
18706,1.132343698048251
18707,1.1626987311820218
18708,1.1255322477985543
18709,1.083215744198251
18710,1.075893866117066
18711,1.1060961814423451
18712,1.150422224765227
18713,1.1824343756899354
18714,1.1945764846950055
18715,1.1982053633139904
18716,1.2017458795868814
18717,1.1921832708787876
18718,1.1397723391665877
18719,1.028849776770762
18720,0.8728646879481758
18721,0.7119597810470528
18722,0.5803813722065966
18723,0.49307381640972403
18724,0.4526345221925705
18725,0.4602031000650462
18726,0.5210878859321622
18727,0.642219104843226
18728,0.8173844807092233
18729,1.0053724380460634
18730,1.1363103449292458
18731,1.1696544459430729
18732,1.1350365928212023
18733,1.0950104971165011
18734,1.0902196369132027
18735,1.123488317002327
18736,1.171261522250604
18737,1.2066587054895968
18738,1.2218615504821746
18739,1.228371616840211
18740,1.2347853670881093
18741,1.2276993247683294
18742,1.1763244143146734
18743,1.061272323433218
18744,0.8993003335563182
18745,0.7321630439705696
18746,0.5953434810431747
18747,0.5041644453601974
18748,0.461016951374568
18749,0.4665846621708027
18750,0.5255424877400354
18751,0.6438776431669875
18752,0.8141077169674771
18753,0.9941144360319356
18754,1.1147746446120106
18755,1.137798176316322
18756,1.0941672654651642
18757,1.0454918890713236
18758,1.0304401042281133
18759,1.0507002549342934
18760,1.083377837074105
18761,1.1034723254603127
18762,1.1043522099427412
18763,1.0969980382118336
18764,1.0893453724158928
18765,1.0697908508408744
18766,1.0123480740273127
18767,0.9020242882440677
18768,0.7549325921574352
18769,0.607125003346188
18770,0.4877438834470861
18771,0.4081971919028635
18772,0.3690122834372261
18773,0.3693737679984483
18774,0.4116929468103343
18775,0.4994013342464292
18776,0.6255924915561737
18777,0.7573956561199934
18778,0.8427399383357835
18779,0.854207857633677
18780,0.816530769091301
18781,0.7762896284042269
18782,0.7620561764600355
18783,0.774768329819582
18784,0.7974212686239658
18785,0.8116821229303941
18786,0.8127623825614702
18787,0.8087570925368482
18788,0.8055005640668422
18789,0.7943696235188721
18790,0.755810735070698
18791,0.6800460942818624
18792,0.5754278255521519
18793,0.4684241779098085
18794,0.3813593183446271
18795,0.3238025758289884
18796,0.29729359853328896
18797,0.30254433317170404
18798,0.34315667917472903
18799,0.42398814067263796
18800,0.5414243655193237
18801,0.6687047444065403
18802,0.7595511225232646
18803,0.7863695411696064
18804,0.7681440835694022
18805,0.7465624643640542
18806,0.7494167481613085
18807,0.7792551873639277
18808,0.8203503638474856
18809,0.8540593388470255
18810,0.874575665262589
18811,0.8897736512262081
18812,0.9057453407655246
18813,0.912533957652108
18814,0.8865235480885525
18815,0.811419576667014
18816,0.6979321195981204
18817,0.5770651149796382
18818,0.4767559122333784
18819,0.4103919337037613
18820,0.3816030053928356
18821,0.3928684722101749
18822,0.45028054237862547
18823,0.5615098119324252
18824,0.7227994321195146
18825,0.8987539628914488
18826,1.0264316107050346
18827,1.0670879355382368
18828,1.0453169479819668
18829,1.017502297689641
18830,1.0216289778955965
18831,1.0611935117995521
18832,1.1145899111355904
18833,1.1563116190868425
18834,1.1785368872845052
18835,1.1920448712187401
18836,1.2050858302979637
18837,1.2045282267550166
18838,1.1598440259570584
18839,1.0512633751860183
18840,0.894711951579456
18841,0.7314414645289693
18842,0.5971053665104219
18843,0.5075805949807716
18844,0.46586164843425115
18845,0.4732122451892613
18846,0.5349552238726897
18847,0.6578335643519334
18848,0.8349043312710508
18849,1.0235099169282438
18850,1.152447573438584
18851,1.1813358698321197
18852,1.1412442042109614
18853,1.0957984555518607
18854,1.0856523448850794
18855,1.1131677614317772
18856,1.154629080549328
18857,1.1835353445105925
18858,1.1925283780380616
18859,1.1931582550306101
18860,1.1939393560967018
18861,1.1820477180837832
18862,1.1281839555310116
18863,1.0122039982621451
18864,0.8533921349780301
18865,0.6916611685446036
18866,0.5602184042648741
18867,0.4728796345163138
18868,0.43130923593155857
18869,0.4357318783156921
18870,0.4902912754936148
18871,0.6005685379725791
18872,0.75984051066781
18873,0.9292608821305561
18874,1.0445691123539604
18875,1.0696921363526892
18876,1.0330459797027705
18877,0.9922012338025694
18878,0.9838872474054323
18879,1.0102813681085083
18880,1.0499691040182528
18881,1.0788858324652106
18882,1.0902180391674783
18883,1.0943720644306207
18884,1.0990687344190386
18885,1.0924150938395243
18886,1.0470275208466011
18887,0.9455271004739688
18888,0.8025195349629017
18889,0.6548705584638442
18890,0.5340838226563135
18891,0.4539504852315023
18892,0.41691683330961044
18893,0.42409302577310853
18894,0.4804376336495613
18895,0.5924181106743788
18896,0.7543886817887431
18897,0.9283762532894297
18898,1.0498490915625303
18899,1.0812470884576935
18900,1.049830732865316
18901,1.0133846583086286
18902,1.0095346751153913
18903,1.040954067910224
18904,1.0858684392261029
18905,1.1193674383596013
18906,1.1341739101531407
18907,1.1409363235916739
18908,1.1476292962698285
18909,1.1417873296707766
18910,1.0947321926199773
18911,0.9883248456066894
18912,0.8380583132943202
18913,0.6827762471250238
18914,0.5555764381352828
18915,0.4708239450754435
18916,0.4308417871461394
18917,0.43636555353447626
18918,0.49187119024769066
18919,0.6030799877448926
18920,0.7631078502886821
18921,0.9325612411137195
18922,1.0465727926564448
18923,1.069038651631642
18924,1.0288738752646789
18925,0.9839063483026121
18926,0.9705433487587781
18927,0.9904544841808391
18928,1.0221238796480936
18929,1.041975078785394
18930,1.0437107991998378
18931,1.037670547565613
18932,1.031346672917662
18933,1.0137427552414142
18934,0.9601805578533917
18935,0.8704526552220964
18936,0.7411811002567996
18937,0.6063695169556449
18938,0.49546821899500737
18939,0.42164571202960255
18940,0.3874612092929471
18941,0.394081642564422
18942,0.44608384825822794
18943,0.5492542161253465
18944,0.69794586580241
18945,0.8565534079884313
18946,0.9653653174159984
18947,0.9902952306851146
18948,0.9571638230241095
18949,0.919251921951848
18950,0.9106597177988797
18951,0.9333399106115638
18952,0.9673344621614943
18953,0.9903801268812031
18954,0.9963222623653021
18955,0.9948504386934457
18956,0.9930821245528753
18957,0.9803788772296997
18958,0.9326275579295245
18959,0.8353869935535274
18960,0.7028723828305196
18961,0.5682676533529395
18962,0.45896630466039323
18963,0.3861719558844404
18964,0.35097876240620524
18965,0.3532180291408639
18966,0.3958170453170867
18967,0.4827501579226949
18968,0.6080275733332247
18969,0.7401519543997543
18970,0.8280665752185083
18971,0.8439487148119814
18972,0.8111721526497747
18973,0.7754599386836811
18974,0.7654639568526596
18975,0.7825621110742921
18976,0.8099364501883412
18977,0.8290337413821753
18978,0.8347949078725211
18979,0.8353550345875225
18980,0.8366858249525988
18981,0.8297924628310649
18982,0.7939933813696266
18983,0.7162446044044581
18984,0.6076322230380148
18985,0.495934012464665
18986,0.40481940771677694
18987,0.34463338081822326
18988,0.31726369235550383
18989,0.32373473522478613
18990,0.36818481044647583
18991,0.4561502495913216
18992,0.5840909140452566
18993,0.7233910699798207
18994,0.823947344727999
18995,0.8554220770103909
18996,0.8379447473610844
18997,0.8167052587879963
18998,0.8221606310112531
18999,0.8573430348991777
19000,0.9051560978408737
19001,0.9450806410182335
19002,0.9706048138688245
19003,0.9903673724627002
19004,1.0111186221231208
19005,1.0217195945340438
19006,0.9955592359506504
19007,0.9139530616137803
19008,0.7884980058237177
19009,0.6539260585913526
19010,0.5419056878324936
19011,0.46790491729362554
19012,0.4364244830311143
19013,0.45070290987899786
19014,0.5181786903489868
19015,0.6482077284109055
19016,0.8370327069633342
19017,1.0440961156536719
19018,1.1962224893002271
19019,1.247589368312347
19020,1.2260725420334984
19021,1.1973124044770609
19022,1.206080690504415
19023,1.2568862501778961
19024,1.3244691716202157
19025,1.3785867571445565
19026,1.4097494941250561
19027,1.4306651325322304
19028,1.4511658100676337
19029,1.45538110704162
19030,1.4061350632003538
19031,1.278832487790525
19032,1.0921115566399755
19033,0.8958842784325013
19034,0.7338694399608467
19035,0.6260012789184988
19036,0.5765492603421033
19037,0.5876943700302124
19038,0.6667083691907582
19039,0.8227430437803173
19040,1.0479037526731092
19041,1.2891990533940305
19042,1.4567971002112476
19043,1.4986766831937828
19044,1.4530363874016918
19045,1.4002274475324008
19046,1.392307943886116
19047,1.4328092323935064
19048,1.4916263358554736
19049,1.534599783485341
19050,1.5519777686450311
19051,1.5585623953746257
19052,1.565396114884028
19053,1.5556048066678068
19054,1.490297206666429
19055,1.3532166133182495
19056,1.1540872139555716
19057,0.9456571295276551
19058,0.7738986582361003
